Semiconductor Band Gap Date: 2024-02-29,3:28 PM
Temperature,Resistance
284.013,1018.157
286.234,559.000
288.519,724.458
290.791,734.673
292.988,3037.535
295.092,-787.754
297.188,1354.128
299.236,705.949
301.181,137.160
303.098,136.654
304.971,16.097
306.803,75.769
308.581,-62.285
310.323,-10.704
312.028,1659.551
313.700,218.981
315.359,710.801
316.969,85.175
318.582,-94.850
320.127,-287.922
321.691,-290.652
323.230,-201.449
324.756,-256.569
326.262,-340.210
327.735,-396.037
329.209,-596.087
330.684,-382.384
332.122,-645.240
333.554,-546.833
334.969,-528.729
336.387,-494.949
337.788,-535.404
339.176,-516.188
340.573,-537.628
341.916,-559.169
343.273,-554.112
344.638,-552.596
346.005,-558.259
347.349,-557.651
348.691,-636.539
350.022,-560.787
351.352,-573.024
352.650,-567.361
353.966,-574.844
355.285,-564.225
356.586,-563.820
357.880,-558.055
359.173,-555.931
360.443,-535.198
361.732,-550.064
363.009,-529.432
364.281,-533.376
365.560,-496.663
366.839,-514.968
368.099,-505.460
369.368,-491.807
370.617,-488.469
371.865,-483.615
373.098,-503.134
374.341,-481.693
375.583,-469.556
376.824,-451.756
378.066,-452.059
379.294,-442.553
380.521,-459.947
381.746,-432.740
382.965,-425.357
384.185,-424.548
385.401,-413.321
386.609,-411.905
387.823,-410.995
389.031,-400.173
390.237,-389.756
391.444,-389.250
392.642,-381.968
393.837,-360.021
395.027,-367.707
396.226,-363.762
397.401,-357.289
398.593,-353.851
399.771,-348.591
400.923,-343.130
402.099,-339.186
403.271,-334.836
404.453,-330.184
405.618,-314.002
406.787,-320.980
407.937,-307.226
409.101,-299.742
410.268,-295.090
411.420,-301.158
412.577,-179.593
413.727,-283.054
414.865,-288.515
416.016,-284.975
417.144,-261.107
418.284,-282.244
419.399,-271.119
420.544,-264.849
421.674,-277.289
422.801,-251.398
423.930,-262.320
425.052,-254.027
426.174,-234.306
427.285,-229.552
428.406,-246.948
429.506,-244.823
430.616,-232.586
431.735,-236.024
432.829,-252.914
433.939,-230.664
435.048,-224.698
436.140,-227.833
437.232,-184.749
438.326,-210.538
439.415,-242.496
440.513,-181.512
441.586,-286.186
442.674,-193.547
443.733,-213.672
444.813,-206.189
445.884,-203.559
446.962,-207.301
448.035,-212.256
449.099,-210.941
450.165,-212.559
451.230,-211.749
452.281,-205.883
453.341,-201.737
454.393,-211.446
455.445,-205.176
456.475,-214.581
457.525,-214.278
458.571,-201.636
459.620,-212.862
460.662,-217.615
461.691,-206.895
462.728,-218.930
463.781,-205.075
464.805,-224.290
465.837,-236.325
466.867,-227.728
467.890,-223.380
468.914,-221.559
469.935,-222.773
470.955,-224.897
471.968,-224.897
472.972,-224.290
473.993,-230.560
475.004,-233.088
476.011,-242.999
477.017,-236.527
478.024,-239.966
479.023,-243.606
480.019,-244.719
481.013,-248.359
482.009,-252.202
482.997,-247.854
483.986,-257.663
484.958,-239.561
485.938,-265.249
486.927,-266.159
487.899,-271.215
488.879,-271.619
489.848,-292.756
490.822,-290.532
491.791,-288.913
492.763,-309.444
493.715,-314.197
494.692,-317.434
495.630,-325.018
496.590,-329.771
497.554,-335.334
498.509,-339.177
499.463,-346.965
500.402,-354.246
501.348,-361.730
502.290,-363.753
503.229,-364.460
504.180,-385.091
505.106,-391.462
506.041,-399.957
506.981,-409.161
507.899,-384.282
508.828,-423.320
509.765,-422.611
510.682,-433.230
511.598,-445.164
512.514,-449.513
513.430,-459.727
514.337,-465.998
515.246,-474.190
516.166,-477.730
517.070,-485.921
517.976,-495.832
518.870,-512.013
519.783,-517.880
520.678,-520.914
521.570,-537.195
522.459,-545.185
523.353,-551.860
524.240,-564.501
525.123,-572.288
526.009,-578.863
526.891,-587.458
527.766,-595.347
528.647,-610.719
529.519,-616.584
530.385,-626.799
531.251,-635.294
532.121,-650.768
532.986,-658.050
533.856,-664.118
534.714,-669.478
535.577,-681.209
536.430,-692.334
537.288,-694.863
538.139,-707.403
538.987,-712.359
539.840,-722.876
540.679,-733.799
541.527,-743.609
542.350,-749.576
543.197,-760.497
544.025,-765.654
544.860,-776.881
545.691,-788.511
546.527,-795.590
547.354,-803.782
548.186,-812.176
549.000,-818.648
549.822,-827.648
550.646,-835.840
551.463,-843.729
552.285,-853.034
553.093,-860.214
553.912,-872.451
554.717,-877.709
555.519,-882.261
556.310,-887.317
557.115,-897.835
557.914,-902.487
558.724,-914.116
559.510,-920.791
560.314,-927.465
561.103,-934.342
561.898,-939.803
562.694,-947.591
563.482,-955.883
564.264,-974.187
565.048,-963.366
565.832,-974.492
566.601,-995.830
567.373,-988.447
568.152,-993.907
568.927,-1002.503
569.704,-1008.875
570.462,-1015.549
571.236,-1025.055
571.992,-1028.391
572.753,-1035.673
573.512,-1041.032
574.272,-1046.797
575.036,-1055.797
575.795,-1059.134
576.552,-1066.313
577.297,-1071.067
578.046,-1079.157
578.793,-1083.000
579.540,-1087.044
580.284,-1097.663
581.028,-1102.214
581.765,-1108.989
582.502,-1114.855
583.240,-1119.709
583.958,-1132.854
584.703,-1134.068
585.431,-1140.338
586.163,-1146.204
586.895,-1152.373
587.615,-1158.036
588.339,-1160.463
589.065,-1165.619
589.783,-1172.698
590.497,-1177.958
591.201,-1184.025
591.914,-1189.281
592.629,-1193.731
593.342,-1200.205
594.047,-1204.653
594.754,-1210.620
595.461,-1216.282
596.162,-1220.834
596.863,-1224.373
597.564,-1230.542
598.262,-1238.125
598.961,-1242.271
599.662,-1245.405
600.359,-1252.282
601.047,-1255.417
601.735,-1259.866
602.426,-1266.844
603.109,-1272.002
603.797,-1276.856
604.480,-1281.710
605.158,-1286.868
605.829,-1291.215
606.510,-1297.686
607.180,-1302.238
607.851,-1305.171
608.511,-1310.732
609.188,-1315.080
609.856,-1317.809
610.528,-1323.673
611.183,-1328.729
611.854,-1333.077
612.515,-1337.426
613.175,-1342.181
613.831,-1347.641
614.480,-1350.270
615.147,-1353.001
615.797,-1360.584
616.451,-1361.289
617.094,-1364.625
617.754,-1370.390
618.396,-1377.164
619.043,-1380.706
619.687,-1383.538
620.331,-1390.919
620.973,-1391.121
621.612,-1400.627
622.249,-1402.345
622.885,-1406.694
623.518,-1406.490
624.149,-1413.366
624.779,-1415.488
625.415,-1419.738
626.043,-1428.230
626.664,-1431.871
627.279,-1435.107
627.902,-1440.871
628.540,-1447.240
629.160,-1450.377
629.782,-1454.321
630.401,-1455.939
631.019,-1460.182
631.635,-1462.913
632.249,-1468.372
632.860,-1473.529
633.474,-1476.560
634.083,-1479.595
634.693,-1483.337
635.297,-1486.169
635.906,-1493.549
636.508,-1493.445
637.104,-1500.625
637.699,-1504.165
638.288,-1508.210
638.887,-1512.357
639.485,-1519.839
640.084,-1520.851
640.678,-1523.885
641.271,-1525.705
641.864,-1531.367
642.456,-1534.096
643.038,-1535.309
643.626,-1540.464
644.218,-1541.779
644.798,-1544.914
645.381,-1551.082
645.950,-1552.904
646.517,-1557.354
647.090,-1561.396
647.672,-1564.127
648.242,-1564.228
648.816,-1563.618
649.388,-1573.429
649.959,-1574.539
650.532,-1578.685
651.104,-1577.874
651.670,-1577.976
652.233,-1586.672
652.799,-1589.906
653.361,-1591.928
653.927,-1601.839
654.491,-1599.715
655.039,-1603.760
655.596,-1606.995
656.154,-1609.317
656.707,-1612.251
657.247,-1614.574
657.803,-1616.393
658.351,-1621.246
658.902,-1623.875
659.449,-1626.403
659.991,-1629.941
660.538,-1632.370
661.085,-1634.589
661.622,-1639.140
662.161,-1641.771
662.706,-1644.701
663.248,-1651.574
663.787,-1650.665
664.322,-1655.719
664.853,-1657.438
665.382,-1660.979
665.920,-1664.008
666.449,-1668.356
666.981,-1671.695
667.514,-1672.499
668.033,-1676.240
668.565,-1678.870
669.088,-1685.545
669.612,-1686.958
670.132,-1690.904
670.657,-1693.328
671.180,-1694.438
671.701,-1695.751
672.218,-1699.491
672.730,-1703.633
673.249,-1707.070
673.758,-1707.070
674.258,-1711.215
674.761,-1714.654
675.263,-1715.868
675.760,-1723.349
676.244,-1723.249
676.720,-1726.888
677.190,-1730.527
677.644,-1731.841
678.097,-1735.883
678.539,-1739.625
678.972,-1741.341
679.404,-1743.666
679.827,-1745.791
680.238,-1752.160
680.637,-1755.191
681.030,-1755.292
681.412,-1755.087
681.783,-1756.502
682.148,-1758.523
682.505,-1759.327
682.853,-1760.742
683.186,-1764.174
683.504,-1763.264
683.813,-1768.014
684.109,-1770.545
684.392,-1770.340
684.660,-1773.271
684.909,-1776.810
685.145,-1776.608
685.367,-1776.705
685.574,-1780.846
685.766,-1779.533
685.942,-1780.338
686.104,-1782.764
686.256,-1781.246
686.388,-1782.156
686.508,-1782.963
686.612,-1780.431
686.710,-1782.452
686.791,-1780.932
686.858,-1780.732
686.917,-1781.030
686.961,-1779.209
686.997,-1779.815
687.018,-1775.364
687.032,-1776.067
687.035,-1772.627
687.029,-1770.402
687.008,-1769.691
686.974,-1768.275
686.935,-1753.814
686.887,-1768.476
686.827,-1768.472
686.758,-1760.986
