Semiconductor Band Gap Date: 2024-02-29,4:31 PM
Temperature,Resistance
284.988,-3007.328
285.873,-2893.030
286.726,-2826.679
287.558,-2784.297
288.364,-2729.577
289.150,-2788.241
289.915,-2658.672
290.689,-2507.557
291.441,-2491.575
292.193,-2716.831
292.944,-2498.150
293.691,-2437.967
294.430,-2286.852
295.166,-2294.437
295.923,-2233.648
296.671,-2238.907
297.430,-2250.135
298.185,-2173.161
298.960,-2113.182
299.716,-2072.015
300.489,-2030.038
301.270,-2065.746
302.049,-2041.166
302.840,-2144.739
303.634,-2085.468
304.442,-2023.261
305.243,-1999.895
306.053,-2133.410
306.866,-2162.641
307.683,-2006.773
308.506,-2046.827
309.335,-1944.771
310.173,-1925.654
311.005,-1956.908
311.851,-1951.749
312.685,-1858.186
313.545,-1882.159
314.392,-1900.770
315.258,-1824.707
316.135,-1887.823
317.007,-1933.542
317.877,-1784.552
318.760,-1803.567
319.640,-1782.933
320.526,-1725.077
321.422,-1866.885
322.311,-1755.016
323.216,-1816.917
324.115,-1721.232
325.019,-1680.268
325.926,-1709.399
326.828,-1655.689
327.732,-1686.539
328.648,-1742.575
329.578,-1800.533
330.501,-1807.713
331.431,-1747.226
332.352,-1716.478
333.292,-1809.635
334.218,-1693.618
335.155,-1608.452
336.097,-1748.947
337.041,-1629.389
337.969,-1619.781
338.924,-1593.787
339.877,-1639.301
340.826,-1587.616
341.778,-1581.446
342.738,-1575.174
343.699,-1595.809
344.667,-1560.305
345.641,-1577.703
346.597,-1550.900
347.564,-1579.119
348.537,-1539.974
349.503,-1555.450
350.458,-1542.100
351.434,-1530.367
352.417,-1551.101
353.391,-1542.201
354.368,-1546.449
355.342,-1527.534
356.311,-1519.341
357.298,-1528.747
358.270,-1546.753
359.265,-1529.254
360.246,-1522.374
361.235,-1535.626
362.228,-1541.898
363.209,-1538.458
364.196,-1532.795
365.169,-1537.953
366.160,-1528.142
367.159,-1554.035
368.148,-1553.226
369.139,-1540.079
370.139,-1542.302
371.134,-1528.849
372.145,-1554.337
373.133,-1540.582
374.124,-1560.913
375.121,-1530.973
376.125,-1543.212
377.131,-1546.145
378.119,-1563.543
379.118,-1544.122
380.100,-1558.383
381.100,-1544.425
382.097,-1572.342
383.110,-1565.361
384.103,-1574.669
385.101,-1575.375
386.100,-1568.599
387.104,-1566.374
388.112,-1582.455
389.116,-1604.507
390.122,-1580.432
391.123,-1583.570
392.121,-1577.500
393.128,-1583.264
394.135,-1589.334
395.131,-1591.863
396.136,-1623.319
397.127,-1599.650
398.140,-1617.250
399.144,-1608.349
400.137,-1616.036
401.138,-1611.384
402.145,-1615.532
403.139,-1614.823
404.137,-1634.040
405.135,-1621.297
406.132,-1628.176
407.126,-1624.735
408.131,-1636.063
409.119,-1624.027
410.115,-1634.749
411.112,-1642.537
412.085,-1651.035
413.081,-1653.765
414.076,-1641.121
415.073,-1648.201
416.064,-1652.450
417.056,-1646.482
418.047,-1654.271
419.038,-1658.923
420.024,-1669.645
421.014,-1672.983
422.002,-1682.085
423.002,-1677.333
423.990,-1686.941
424.977,-1685.019
425.963,-1683.705
426.941,-1689.875
427.926,-1690.381
428.906,-1695.134
429.901,-1704.542
430.880,-1709.296
431.866,-1698.876
432.834,-1716.780
433.822,-1714.756
434.797,-1721.734
435.777,-1713.442
436.757,-1714.352
437.728,-1715.062
438.699,-1720.219
439.669,-1719.308
440.630,-1717.789
441.606,-1723.958
442.583,-1723.453
443.550,-1721.126
444.506,-1721.936
445.476,-1736.601
446.443,-1733.870
447.406,-1725.172
448.369,-1724.667
449.326,-1725.172
450.288,-1722.239
451.247,-1722.947
452.200,-1721.632
453.153,-1723.453
454.112,-1725.578
455.067,-1723.858
456.014,-1719.610
456.955,-1719.104
457.905,-1720.520
458.839,-1724.465
459.784,-1724.464
460.729,-1722.139
461.679,-1714.957
462.630,-1725.780
463.568,-1718.092
464.502,-1714.450
465.442,-1711.213
466.375,-1715.665
467.309,-1713.641
468.237,-1710.708
469.175,-1711.719
470.102,-1708.079
471.034,-1706.157
471.942,-1704.941
472.871,-1712.021
473.795,-1713.234
474.722,-1706.862
475.645,-1704.840
476.575,-1703.321
477.494,-1697.859
478.405,-1698.872
479.319,-1692.399
480.239,-1690.983
481.152,-1687.847
482.059,-1685.318
482.971,-1680.564
483.885,-1678.339
484.793,-1679.856
485.692,-1674.091
486.595,-1669.943
487.494,-1670.956
488.396,-1665.189
489.302,-1657.098
490.190,-1656.795
491.075,-1653.456
491.972,-1650.118
492.873,-1640.004
493.760,-1631.810
494.664,-1626.247
495.542,-1623.515
496.431,-1614.513
497.319,-1611.075
498.213,-1604.197
499.099,-1599.037
499.973,-1595.194
500.859,-1591.453
501.739,-1586.395
502.623,-1575.269
503.488,-1572.842
504.365,-1567.077
505.217,-1559.086
506.091,-1552.207
506.958,-1550.791
507.835,-1539.564
508.700,-1540.677
509.560,-1536.024
510.420,-1530.765
511.279,-1528.539
512.139,-1526.315
512.997,-1520.649
513.851,-1512.356
514.707,-1506.489
515.550,-1500.116
516.408,-1495.565
517.253,-1489.496
518.103,-1489.496
518.929,-1480.392
519.774,-1478.875
520.624,-1473.818
521.468,-1467.850
522.292,-1463.501
523.132,-1459.355
523.970,-1456.825
524.799,-1455.105
525.629,-1450.756
526.469,-1450.554
527.305,-1441.552
528.121,-1444.382
528.946,-1442.157
529.764,-1435.683
530.590,-1435.885
531.402,-1424.255
532.216,-1419.702
533.036,-1413.230
533.836,-1415.455
534.659,-1402.305
535.465,-1406.151
536.275,-1401.598
537.085,-1394.821
537.893,-1419.298
538.695,-1418.895
539.494,-1422.939
540.294,-1420.714
541.093,-1424.050
541.895,-1419.803
542.689,-1419.905
543.477,-1415.758
544.275,-1429.514
545.055,-1431.537
545.845,-1431.537
546.628,-1439.022
547.418,-1440.641
548.206,-1444.383
548.974,-1444.990
549.756,-1447.112
550.520,-1450.857
551.301,-1450.249
552.071,-1447.417
552.853,-1446.506
553.616,-1447.214
554.391,-1447.922
555.156,-1459.553
555.916,-1459.655
556.675,-1459.250
557.432,-1459.656
558.186,-1460.767
558.948,-1463.499
559.709,-1466.027
560.460,-1466.432
561.220,-1474.220
561.956,-1475.433
562.717,-1483.727
563.465,-1488.076
564.208,-1490.910
564.956,-1493.640
565.703,-1495.056
566.456,-1498.597
567.196,-1504.969
567.938,-1506.891
568.679,-1507.699
569.411,-1507.497
570.144,-1510.228
570.881,-1511.645
571.609,-1514.072
572.339,-1518.926
573.053,-1521.758
573.784,-1521.150
574.513,-1524.590
575.237,-1525.602
575.958,-1528.332
576.676,-1529.141
577.377,-1529.242
578.089,-1533.793
578.804,-1536.626
579.529,-1538.953
580.241,-1537.030
580.951,-1541.075
581.669,-1542.897
582.381,-1547.044
583.083,-1550.887
583.790,-1553.719
584.499,-1555.337
585.203,-1557.057
585.906,-1562.417
586.603,-1565.352
587.292,-1564.642
587.991,-1569.700
588.681,-1568.285
589.373,-1570.712
590.069,-1572.229
590.746,-1574.454
591.431,-1578.803
592.127,-1581.635
592.806,-1584.467
593.490,-1587.604
594.164,-1587.704
594.845,-1590.941
595.531,-1594.077
596.201,-1596.301
596.878,-1597.616
597.554,-1601.258
598.215,-1602.675
598.884,-1605.405
599.555,-1609.146
600.229,-1609.754
600.888,-1613.596
601.553,-1616.936
602.223,-1619.060
602.881,-1620.981
603.541,-1624.217
604.201,-1626.038
604.855,-1629.578
605.512,-1630.590
606.166,-1635.040
606.805,-1636.658
607.463,-1638.985
608.117,-1642.626
608.760,-1642.728
609.396,-1646.065
610.051,-1648.089
610.696,-1650.314
611.341,-1654.562
611.984,-1655.978
612.625,-1657.696
613.269,-1661.538
613.904,-1663.258
614.542,-1665.182
615.182,-1667.406
615.823,-1654.053
616.450,-1668.720
617.079,-1674.182
617.697,-1679.948
618.300,-1678.431
618.927,-1683.993
619.551,-1687.432
620.177,-1690.569
620.804,-1693.502
621.422,-1696.133
622.044,-1701.491
622.660,-1705.841
623.277,-1707.157
623.898,-1708.167
624.512,-1711.202
625.132,-1715.957
625.744,-1718.890
626.353,-1725.464
626.959,-1728.094
627.571,-1730.318
628.168,-1734.162
628.774,-1737.499
629.383,-1740.636
629.988,-1742.254
630.592,-1746.300
631.190,-1748.727
631.792,-1751.357
632.388,-1755.200
632.983,-1756.920
633.574,-1761.774
634.169,-1763.697
634.762,-1766.124
635.353,-1769.158
635.940,-1773.001
636.531,-1773.507
637.113,-1776.238
637.702,-1779.373
638.277,-1782.912
638.855,-1784.024
639.438,-1787.465
640.024,-1783.824
640.593,-1793.129
641.153,-1798.389
641.707,-1804.356
642.272,-1807.290
642.845,-1811.639
643.401,-1814.975
643.963,-1819.326
644.530,-1823.067
645.085,-1828.731
645.650,-1828.429
646.206,-1835.812
646.768,-1838.442
647.321,-1840.465
647.877,-1842.993
648.432,-1844.410
648.982,-1848.757
649.528,-1852.300
650.079,-1852.198
650.633,-1853.817
651.187,-1856.649
651.721,-1856.850
652.262,-1862.717
652.810,-1864.334
653.359,-1868.180
653.905,-1872.023
654.447,-1877.687
654.995,-1878.901
655.538,-1882.542
656.083,-1883.856
656.616,-1888.204
657.160,-1891.745
657.693,-1893.261
658.222,-1897.105
658.754,-1898.015
659.280,-1898.723
659.820,-1902.871
660.355,-1904.593
660.893,-1906.613
661.426,-1911.062
661.962,-1911.872
662.491,-1916.323
663.024,-1918.145
663.552,-1923.706
664.074,-1925.627
664.600,-1928.156
665.114,-1933.315
665.641,-1936.551
666.164,-1939.282
666.687,-1940.699
667.198,-1945.050
667.720,-1948.083
668.240,-1951.421
668.749,-1953.746
669.258,-1954.050
669.780,-1958.196
670.298,-1961.029
670.813,-1963.760
671.318,-1968.109
671.832,-1969.019
672.337,-1972.456
672.844,-1977.414
673.343,-1979.840
673.841,-1985.906
674.327,-1987.729
674.805,-1991.673
675.264,-1993.999
675.718,-1999.158
676.167,-2002.598
676.613,-2008.866
